flux0_1,flux0_2,flux2_1,flux2_2,id,x,y,z
0.016100172412435,0.0011303174637494,-7.6543564335821e-06,-9.6733867554707e-08,0,0,0,0
0.016099016347013,0.001130262401044,-7.6633717297063e-06,-9.4672442588245e-08,0.24157894736842,0.24157894736842,0,0
0.016097860281591,0.0011302073383386,-7.6723870258305e-06,-9.2611017621784e-08,0.48315789473684,0.48315789473684,0,0
0.016096704216169,0.0011301522756333,-7.6814023219548e-06,-9.0549592655322e-08,0.72473684210526,0.72473684210526,0,0
0.016095548150747,0.0011300972129279,-7.690417618079e-06,-8.8488167688861e-08,0.96631578947368,0.96631578947368,0,0
0.016092428800025,0.0011299637587001,-7.720013161196e-06,-8.1731661771197e-08,1.2078947368421,1.2078947368421,0,0
0.016089248096639,0.0011298278547372,-7.7502518370314e-06,-7.4828434573846e-08,1.4494736842105,1.4494736842105,0,0
0.016086067393252,0.0011296919507744,-7.7804905128668e-06,-6.7925207376496e-08,1.6910526315789,1.6910526315789,0,0
0.016082886689866,0.0011295560468115,-7.8107291887022e-06,-6.1021980179146e-08,1.9326315789474,1.9326315789474,0,0
0.016077681252614,0.0011293891806143,-7.8791769160268e-06,-4.5330086313031e-08,2.1742105263158,2.1742105263158,0,0
0.016072345187371,0.0011292203168536,-7.9500897434467e-06,-2.9071181694266e-08,2.4157894736842,2.4157894736842,0,0
0.016067009122128,0.0011290514530928,-8.0210025708665e-06,-1.2812277075501e-08,2.6573684210526,2.6573684210526,0,0
0.016061673056886,0.0011288825893321,-8.0919153982864e-06,3.4466275432636e-09,2.8989473684211,2.8989473684211,0,0
0.016054241987086,0.0011287955768301,-8.2393544821566e-06,3.7837312661368e-08,3.1405263157895,3.1405263157895,0,0
0.01604660141683,0.0011287167494541,-8.3944461916691e-06,7.4041175828754e-08,3.3821052631579,3.3821052631579,0,0
0.016038960846574,0.001128637922078,-8.5495379011816e-06,1.1024503899614e-07,3.6236842105263,3.6236842105263,0,0
0.016031320276319,0.001128559094702,-8.7046296106941e-06,1.4644890216352e-07,3.8652631578947,3.8652631578947,0,0
0.016021430329262,0.0011287974053282,-9.0103848876382e-06,2.2040567958599e-07,4.1068421052632,4.1068421052632,0,0
0.016011230123336,0.0011290794591271,-9.336921346289e-06,2.9956975552437e-07,4.3484210526316,4.3484210526316,0,0
0.01600102991741,0.001129361512926,-9.6634578049397e-06,3.7873383146275e-07,4.59,4.59,0,0
0.015990829711484,0.001129643566725,-9.9899942635904e-06,4.5789790740112e-07,4.8315789473684,4.8315789473684,0,0
0.01597800474106,0.0011307507432362,-1.0609321363551e-05,6.1769701016061e-07,5.0731578947368,5.0731578947368,0,0
0.01596471106269,0.0011320052630889,-1.1280932506581e-05,7.9189522484648e-07,5.3147368421053,5.3147368421053,0,0
0.01595141738432,0.0011332597829416,-1.1952543649612e-05,9.6609343953235e-07,5.5563157894737,5.5563157894737,0,0
0.015938123705951,0.0011345143027943,-1.2624154792642e-05,1.1402916542182e-06,5.7978947368421,5.7978947368421,0,0
0.015921402204712,0.0011376354681659,-1.3822947014218e-05,1.4839965903837e-06,6.0394736842105,6.0394736842105,0,0
0.015903918965058,0.0011411714436528,-1.5138890586538e-05,1.865369686864e-06,6.2810526315789,6.2810526315789,0,0
0.015886435725404,0.0011447074191396,-1.6454834158859e-05,2.2467427833443e-06,6.5226315789474,6.5226315789474,0,0
0.015868952485751,0.0011482433946264,-1.7770777731179e-05,2.6281158798246e-06,6.7642105263158,6.7642105263158,0,0
0.015846304921924,0.0011558851950119,-1.994233335579e-05,3.3707020474516e-06,7.0057894736842,7.0057894736842,0,0
0.015822266963128,0.0011646324097928,-2.2344246071341e-05,4.2105378880543e-06,7.2473684210526,7.2473684210526,0,0
0.015798229004332,0.0011733796245737,-2.4746158786892e-05,5.050373728657e-06,7.4889473684211,7.4889473684211,0,0
0.015774191045537,0.0011821268393547,-2.7148071502444e-05,5.8902095692597e-06,7.7305263157895,7.7305263157895,0,0
0.015741387688554,0.0011995839696831,-3.0559158448234e-05,7.4570401112383e-06,7.9721052631579,7.9721052631579,0,0
0.015705779404153,0.0012198282729863,-3.4293181147644e-05,9.2565089576165e-06,8.2136842105263,8.2136842105263,0,0
0.015670171119752,0.0012400725762895,-3.8027203847054e-05,1.1055977803995e-05,8.4552631578947,8.4552631578947,0,0
0.01563456283535,0.0012603168795927,-4.1761226546464e-05,1.2855446650373e-05,8.6968421052632,8.6968421052632,0,0
0.015582361038307,0.0012993176148236,-4.5242626194934e-05,1.5668204285521e-05,8.9384210526316,8.9384210526316,0,0
0.015523936674024,0.0013453520120267,-4.8629292199312e-05,1.8860945216417e-05,9.18,9.18,0,0
0.015465512309741,0.0013913864092297,-5.2015958203689e-05,2.2053686147313e-05,9.4215789473684,9.4215789473684,0,0
0.015407087945458,0.0014374208064327,-5.5402624208067e-05,2.5246427078209e-05,9.6631578947368,9.6631578947368,0,0
0.015313995824703,0.0015254399005857,-5.0359519957639e-05,2.2729120340343e-05,9.9047368421053,9.9047368421053,0,0
0.015205830766353,0.001631713210803,-4.1651298205274e-05,1.7729184181379e-05,10.146315789474,10.146315789474,0,0
0.015097665708002,0.0017379865210203,-3.2943076452909e-05,1.2729248022416e-05,10.387894736842,10.387894736842,0,0
0.014989500649652,0.0018442598312377,-2.4234854700544e-05,7.7293118634523e-06,10.629473684211,10.629473684211,0,0
0.014868283197421,0.001962666798572,-1.2907858017885e-05,1.2400646354917e-06,10.871052631579,10.871052631579,0,0
0.014740539548249,0.0020871405944647,-2.7147387007977e-07,-5.9938381269675e-06,11.112631578947,11.112631578947,0,0
0.014612795899077,0.0022116143903575,1.2364910277726e-05,-1.3227740889427e-05,11.354210526316,11.354210526316,0,0
0.014485052249905,0.0023360881862503,2.5001294425531e-05,-2.0461643651886e-05,11.595789473684,11.595789473684,0,0
0.014381890200837,0.0024235983476606,2.9710413774877e-05,-2.1816535308686e-05,11.837368421053,11.837368421053,0,0
0.014292774780401,0.0024899864322246,2.9889667525256e-05,-1.981199204808e-05,12.078947368421,12.078947368421,0,0
0.014203659359964,0.0025563745167886,3.0068921275636e-05,-1.7807448787473e-05,12.320526315789,12.320526315789,0,0
0.014114543939527,0.0026227626013526,3.0248175026015e-05,-1.5802905526867e-05,12.562105263158,12.562105263158,0,0
0.014038578855493,0.0026697768758193,2.9065971246986e-05,-1.4066412355635e-05,12.803684210526,12.803684210526,0,0
0.01397116149012,0.0027041981737234,2.6998820073896e-05,-1.2504151742483e-05,13.045263157895,13.045263157895,0,0
0.013903744124747,0.0027386194716276,2.4931668900806e-05,-1.0941891129332e-05,13.286842105263,13.286842105263,0,0
0.013836326759374,0.0027730407695317,2.2864517727715e-05,-9.3796305161814e-06,13.528421052632,13.528421052632,0,0
0.013776300791078,0.0027969611576983,2.0915609759472e-05,-8.191627228094e-06,13.77,13.77,0,0
0.013721721115364,0.0028131440334273,1.9053828363214e-05,-7.2793924952919e-06,14.011578947368,14.011578947368,0,0
0.013667141439651,0.0028293269091562,1.7192046966955e-05,-6.3671577624897e-06,14.253157894737,14.253157894737,0,0
0.013612561763937,0.0028455097848852,1.5330265570697e-05,-5.4549230296876e-06,14.494736842105,14.494736842105,0,0
0.013562170718232,0.0028560405815587,1.3787102542327e-05,-4.7561794296347e-06,14.736315789474,14.736315789474,0,0
0.013515270197533,0.0028618613123531,1.2509454820496e-05,-4.2353451068491e-06,14.977894736842,14.977894736842,0,0
0.013468369676833,0.0028676820431476,1.1231807098665e-05,-3.7145107840635e-06,15.219473684211,15.219473684211,0,0
0.013421469156134,0.002873502773942,9.9541593768332e-06,-3.1936764612779e-06,15.461052631579,15.461052631579,0,0
0.013376981272962,0.0028762926514784,8.9236664997435e-06,-2.7879858464162e-06,15.702631578947,15.702631578947,0,0
0.013334764107462,0.002876229961243,8.1257899470734e-06,-2.4906657801686e-06,15.944210526316,15.944210526316,0,0
0.013292546941962,0.0028761672710076,7.3279133944033e-06,-2.193345713921e-06,16.185789473684,16.185789473684,0,0
0.013250329776462,0.0028761045807723,6.5300368417333e-06,-1.8960256476734e-06,16.427368421053,16.427368421053,0,0
0.013209530065674,0.0028744273537439,5.8875754720014e-06,-1.6606128818605e-06,16.668947368421,16.668947368421,0,0
0.013170236400517,0.0028710346813732,5.4102427341056e-06,-1.4909766227452e-06,16.910526315789,16.910526315789,0,0
0.01313094273536,0.0028676420090026,4.9329099962099e-06,-1.3213403636299e-06,17.152105263158,17.152105263158,0,0
0.013091649070202,0.002864249336632,4.4555772583142e-06,-1.1517041045147e-06,17.393684210526,17.393684210526,0,0
0.013053211210953,0.0028600028949209,4.0686653524182e-06,-1.0154375366461e-06,17.635263157895,17.635263157895,0,0
0.013015800318794,0.0028547319300014,3.7902584448873e-06,-9.1921459826088e-07,17.876842105263,17.876842105263,0,0
0.012978389426635,0.002849460965082,3.5118515373565e-06,-8.2299165987566e-07,18.118421052632,18.118421052632,0,0
0.012940978534476,0.0028441900001626,3.2334446298256e-06,-7.2676872149043e-07,18.36,18.36,0,0
0.012904104829594,0.0028384696092083,3.0061745250528e-06,-6.4868896050867e-07,18.601578947368,18.601578947368,0,0
0.012867960164589,0.0028321392829213,2.8483043668572e-06,-5.9523208313778e-07,18.843157894737,18.843157894737,0,0
0.012831815499583,0.0028258089566342,2.6904342086616e-06,-5.4177520576688e-07,19.084736842105,19.084736842105,0,0
0.012795670834577,0.0028194786303471,2.532564050466e-06,-4.8831832839598e-07,19.326315789474,19.326315789474,0,0
0.012759883392005,0.002812908740255,2.4039415911429e-06,-4.450223954535e-07,19.567894736842,19.567894736842,0,0
0.012724645522407,0.0028059702904631,2.320315591603e-06,-4.1735868470145e-07,19.809473684211,19.809473684211,0,0
0.01268940765281,0.0027990318406712,2.2366895920632e-06,-3.8969497394939e-07,20.051052631579,20.051052631579,0,0
0.012654169783212,0.0027920933908793,2.1530635925234e-06,-3.6203126319734e-07,20.292631578947,20.292631578947,0,0
0.012619190634548,0.0027850176243311,2.0874890939473e-06,-3.4056920920894e-07,20.534210526316,20.534210526316,0,0
0.012584664247517,0.0027777015534592,2.0535047220427e-06,-3.2996005455183e-07,20.775789473684,20.775789473684,0,0
0.012550137860485,0.0027703854825874,2.0195203501382e-06,-3.1935089989472e-07,21.017368421053,21.017368421053,0,0
0.012515611473454,0.0027630694117156,1.9855359782336e-06,-3.0874174523762e-07,21.258947368421,21.258947368421,0,0
0.012481295759835,0.0027556559700475,1.9649628380502e-06,-3.0272128146463e-07,21.500526315789,21.500526315789,0,0
0.012447401393038,0.0027480477867869,1.9712121612946e-06,-3.058781994549e-07,21.742105263158,21.742105263158,0,0
0.012413507026241,0.0027404396035263,1.977461484539e-06,-3.0903511744517e-07,21.983684210526,21.983684210526,0,0
0.012379612659445,0.0027328314202657,1.9837108077834e-06,-3.1219203543544e-07,22.225263157895,22.225263157895,0,0
0.01234591523066,0.0027251253288998,2.0030968837627e-06,-3.1985862383763e-07,22.466842105263,22.466842105263,0,0
0.012312670759305,0.0027171940488919,2.052697491016e-06,-3.3789745418161e-07,22.708421052632,22.708421052632,0,0
0.012279426287949,0.002709262768884,2.1022980982694e-06,-3.5593628452559e-07,22.95,22.95,0,0
0.012246181816594,0.0027013314888762,2.1518987055227e-06,-3.7397511486956e-07,23.191578947368,23.191578947368,0,0
0.01221314754436,0.0026932692184331,2.217803907596e-06,-3.9767470486868e-07,23.433157894737,23.433157894737,0,0
0.012180673803116,0.0026848576401629,2.327188029167e-06,-4.3646965394045e-07,23.674736842105,23.674736842105,0,0
0.012148200061872,0.0026764460618927,2.4365721507381e-06,-4.7526460301222e-07,23.916315789474,23.916315789474,0,0
0.012115726320627,0.0026680344836225,2.5459562723091e-06,-5.14059552084e-07,24.157894736842,24.157894736842,0,0
0.012083501351682,0.0026594254027756,2.6780636154594e-06,-5.6091749818626e-07,24.399473684211,24.399473684211,0,0
0.012052053796167,0.0026501991263768,2.8811810260071e-06,-6.3297230999543e-07,24.641052631579,24.641052631579,0,0
0.012020606240653,0.002640972849978,3.0842984365549e-06,-7.050271218046e-07,24.882631578947,24.882631578947,0,0
0.011989158685138,0.0026317465735793,3.2874158471026e-06,-7.7708193361377e-07,25.124210526316,25.124210526316,0,0
0.011958025930405,0.0026222159772397,3.5229106814363e-06,-8.6110105095962e-07,25.365789473684,25.365789473684,0,0
0.011928062435713,0.002611555049692,3.8786645183469e-06,-9.8955901742086e-07,25.607368421053,25.607368421053,0,0
0.011898098941021,0.0026008941221443,4.2344183552575e-06,-1.1180169838821e-06,25.848947368421,25.848947368421,0,0
0.011868135446329,0.0025902331945966,4.5901721921681e-06,-1.2464749503433e-06,26.090526315789,26.090526315789,0,0
0.01183858468184,0.0025791103551909,4.9903753119016e-06,-1.3926983420635e-06,26.332105263158,26.332105263158,0,0
0.011810891203267,0.0025659089124249,5.5906002042377e-06,-1.6188661474087e-06,26.573684210526,26.573684210526,0,0
0.011783197724693,0.002552707469659,6.1908250965737e-06,-1.8450339527539e-06,26.815263157895,26.815263157895,0,0
0.011755504246119,0.002539506026893,6.7910499889098e-06,-2.0712017580991e-06,27.056842105263,27.056842105263,0,0
0.011728357477882,0.002525624350089,7.4464059177129e-06,-2.3232569815694e-06,27.298421052632,27.298421052632,0,0
0.011704272287528,0.002507933362673,8.4104956505943e-06,-2.7202817464757e-06,27.54,27.54,0,0
0.011680187097174,0.002490242375257,9.3745853834757e-06,-3.1173065113819e-06,27.781578947368,27.781578947368,0,0
0.011656101906819,0.0024725513878411,1.0338675116357e-05,-3.5143312762882e-06,28.023157894737,28.023157894737,0,0
0.011632731706208,0.002453900714633,1.1355756094033e-05,-3.9476443858635e-06,28.264736842105,28.264736842105,0,0
0.011614545181231,0.0024282923194349,1.2757023596301e-05,-4.6440479941704e-06,28.506315789474,28.506315789474,0,0
0.011596358656255,0.0024026839242369,1.4158291098568e-05,-5.3404516024774e-06,28.747894736842,28.747894736842,0,0
0.011578172131278,0.0023770755290389,1.5559558600835e-05,-6.0368552107843e-06,28.989473684211,28.989473684211,0,0
0.011560881570139,0.0023501982201099,1.6972235848462e-05,-6.7784202527517e-06,29.231052631579,29.231052631579,0,0
0.011552550647379,0.0023106317738773,1.8499010549628e-05,-7.9715996311199e-06,29.472631578947,29.472631578947,0,0
0.011544219724619,0.0022710653276446,2.0025785250794e-05,-9.164779009488e-06,29.714210526316,29.714210526316,0,0
0.01153588880186,0.002231498881412,2.155255995196e-05,-1.0357958387856e-05,29.955789473684,29.955789473684,0,0
0.011528565913496,0.0021904502290947,2.2968945368889e-05,-1.1570429638656e-05,30.197368421053,30.197368421053,0,0
0.011536867558268,0.0021264273824756,2.2674296880847e-05,-1.3081924912032e-05,30.438947368421,30.438947368421,0,0
0.011545169203039,0.0020624045358564,2.2379648392805e-05,-1.4593420185409e-05,30.680526315789,30.680526315789,0,0
0.011553470847811,0.0019983816892373,2.2084999904762e-05,-1.6104915458785e-05,30.922105263158,30.922105263158,0,0
0.011562669348309,0.0019330112723597,2.1492033941097e-05,-1.739432695692e-05,31.163684210526,31.163684210526,0,0
0.011600567232022,0.0018245186072335,1.1352908762169e-05,-1.1577057650809e-05,31.405263157895,31.405263157895,0,0
0.011638465115736,0.0017160259421074,1.2137835832402e-06,-5.7597883446978e-06,31.646842105263,31.646842105263,0,0
0.011676362999449,0.0016075332769812,-8.9253415956879e-06,5.7480961413006e-08,31.888421052632,31.888421052632,0,0
0.011714260883163,0.0014990406118551,-1.9064466774616e-05,5.8747502675239e-06,32.13,32.13,0,0
0.011736173425327,0.0014079184818009,-2.5798652362334e-05,9.7359649363663e-06,32.371578947368,32.371578947368,0,0
0.01175808596749,0.0013167963517467,-3.2532837950052e-05,1.3597179605209e-05,32.613157894737,32.613157894737,0,0
0.011779998509654,0.0012256742216926,-3.926702353777e-05,1.7458394274051e-05,32.854736842105,32.854736842105,0,0
0.011801911051818,0.0011345520916384,-4.6001209125488e-05,2.1319608942894e-05,33.096315789474,33.096315789474,0,0
0.011784837711933,0.0010908415697981,-4.3413638264573e-05,1.8906689915639e-05,33.337894736842,33.337894736842,0,0
0.011766546063234,0.0010486126607141,-4.0534762514732e-05,1.6297704210443e-05,33.579473684211,33.579473684211,0,0
0.011748254414536,0.0010063837516301,-3.7655886764891e-05,1.3688718505247e-05,33.821052631579,33.821052631579,0,0
0.011729962765837,0.00096415484254605,-3.4777011015049e-05,1.1079732800052e-05,34.062631578947,34.062631578947,0,0
0.011694397045781,0.00094167346807817,-3.1679970322086e-05,9.5375010814014e-06,34.304210526316,34.304210526316,0,0
0.011657716869508,0.00092046612810159,-2.8568854471503e-05,8.0640922005888e-06,34.545789473684,34.545789473684,0,0
0.011621036693235,0.000899258788125,-2.545773862092e-05,6.5906833197761e-06,34.787368421053,34.787368421053,0,0
0.011584356516962,0.00087805144814842,-2.2346622770337e-05,5.1172744389636e-06,35.028947368421,35.028947368421,0,0
0.011539274752966,0.00086545057811866,-2.0247629341695e-05,4.3609059639776e-06,35.270526315789,35.270526315789,0,0
0.011493352830198,0.00085371035508318,-1.8249848155198e-05,3.67624152954e-06,35.512105263158,35.512105263158,0,0
0.01144743090743,0.00084197013204769,-1.6252066968701e-05,2.9915770951023e-06,35.753684210526,35.753684210526,0,0
0.011401508984663,0.0008302299090122,-1.4254285782204e-05,2.3069126606646e-06,35.995263157895,35.995263157895,0,0
0.011351176460361,0.00082223586479612,-1.3037710033135e-05,1.949822619768e-06,36.236842105263,36.236842105263,0,0
0.011300235577227,0.00081475853489981,-1.1928886758164e-05,1.6379152538301e-06,36.478421052632,36.478421052632,0,0
0.011249294694094,0.0008072812050035,-1.0820063483194e-05,1.3260078878922e-06,36.72,36.72,0,0
0.01119835381096,0.00079980387510719,-9.7112402082233e-06,1.0141005219543e-06,36.961578947368,36.961578947368,0,0
0.011144867307259,0.00079396482833893,-9.0580242581684e-06,8.4831366142515e-07,37.203157894737,37.203157894737,0,0
0.011090926228458,0.00078841833212912,-8.4861667589544e-06,7.0861974827854e-07,37.444736842105,37.444736842105,0,0
0.011036985149656,0.0007828718359193,-7.9143092597404e-06,5.6892583513192e-07,37.686315789474,37.686315789474,0,0
0.010983044070854,0.00077732533970949,-7.3424517605264e-06,4.2923192198531e-07,37.927894736842,37.927894736842,0,0
0.010927466595691,0.0007724308966649,-6.9938231175382e-06,3.5079161170865e-07,38.169473684211,38.169473684211,0,0
0.010871525476891,0.00076768135432366,-6.6948008870298e-06,2.8596321317681e-07,38.411052631579,38.411052631579,0,0
0.010815584358092,0.00076293181198241,-6.3957786565215e-06,2.2113481464497e-07,38.652631578947,38.652631578947,0,0
0.010759643239293,0.00075818226964117,-6.0967564260131e-06,1.5630641611313e-07,38.894210526316,38.894210526316,0,0
0.010702455394209,0.0007536949572492,-5.9085528290766e-06,1.1927542493845e-07,39.135789473684,39.135789473684,0,0
0.010644931892048,0.00074927824522815,-5.7501850180855e-06,8.9728351125069e-08,39.377368421053,39.377368421053,0,0
0.010587408389888,0.0007448615332071,-5.5918172070944e-06,6.018127731169e-08,39.618947368421,39.618947368421,0,0
0.010529884887727,0.00074044482118605,-5.4334493961033e-06,3.063420349831e-08,39.860526315789,39.860526315789,0,0
0.010471449620177,0.00073612206803829,-5.328017234836e-06,1.3597282466525e-08,40.102105263158,40.102105263158,0,0
0.010412722587702,0.00073182938172998,-5.239524481472e-06,5.6361032283571e-10,40.343684210526,40.343684210526,0,0
0.010353995555227,0.00072753669542166,-5.1510317281079e-06,-1.2470061820853e-08,40.585263157895,40.585263157895,0,0
0.010295268522752,0.00072324400911335,-5.0625389747438e-06,-2.5503733964543e-08,40.826842105263,40.826842105263,0,0
0.010235764979968,0.00071896598902364,-4.9980080481126e-06,-3.3071178521946e-08,41.068421052632,41.068421052632,0,0
0.010175970245817,0.0007146934687659,-4.9424628065015e-06,-3.8588787735566e-08,41.31,41.31,0,0
0.010116175511667,0.00071042094850816,-4.8869175648905e-06,-4.4106396949186e-08,41.551578947368,41.551578947368,0,0
0.010056380777517,0.00070614842825042,-4.8313723232794e-06,-4.9624006162806e-08,41.793157894737,41.793157894737,0,0
0.0099958855082167,0.00070186050436072,-4.7876916309175e-06,-5.2475705268816e-08,42.034736842105,42.034736842105,0,0
0.0099350856584169,0.00069756588323974,-4.7491694382269e-06,-5.4168313024176e-08,42.276315789474,42.276315789474,0,0
0.0098742858086172,0.00069327126211876,-4.7106472455363e-06,-5.5860920779536e-08,42.517894736842,42.517894736842,0,0
